0,0
0,0
0,0
0,0
0,0
0,0
0,0.0363091637138824
0,0.0363091637138824
0,0.0363091637138824
0,0.0363091637138824
0,0.0363091637138824
0,0.0363091637138824
0,0.0729819979265827
0,0.0729819979265827
0,0.0729819979265827
0,0.0729819979265827
0,0.0729819979265827
0,0.0729819979265827
0,0.107808671567061
0,0.107808671567061
0,0.107808671567061
0,0.107808671567061
0,0.107808671567061
0,0.107808671567061
0,0.140272830152916
0,0.140272830152916
0,0.140272830152916
0,0.140272830152916
0,0.140272830152916
0,0.140272830152916
0.0592349952876813,0
0.0592349952876813,0
0.0592349952876813,0
0.0592349952876813,0
0.0592349952876813,0
0.0592349952876813,0
0.0589448542875371,0.0359379128896242
0.0589448542875371,0.0359379128896242
0.0589448542875371,0.0359379128896242
0.0589448542875371,0.0359379128896242
0.0589448542875371,0.0359379128896242
0.0589448542875371,0.0359379128896242
0.0586598982460533,0.0710384375177426
0.0586598982460533,0.0710384375177426
0.0586598982460533,0.0710384375177426
0.0586598982460533,0.0710384375177426
0.0586598982460533,0.0710384375177426
0.0586598982460533,0.0710384375177426
0.0576425184099066,0.105173275808798
0.0576425184099066,0.105173275808798
0.0576425184099066,0.105173275808798
0.0576425184099066,0.105173275808798
0.0576425184099066,0.105173275808798
0.0576425184099066,0.105173275808798
0.056945989814736,0.138686332545155
0.056945989814736,0.138686332545155
0.056945989814736,0.138686332545155
0.056945989814736,0.138686332545155
0.056945989814736,0.138686332545155
0.056945989814736,0.138686332545155
0.116465722299949,0
0.116465722299949,0
0.116465722299949,0
0.116465722299949,0
0.116465722299949,0
0.116465722299949,0
0.115793804671296,0.0354363472784525
0.115793804671296,0.0354363472784525
0.115793804671296,0.0354363472784525
0.115793804671296,0.0354363472784525
0.115793804671296,0.0354363472784525
0.115793804671296,0.0354363472784525
0.11219999107416,0.103156374377603
0.11219999107416,0.103156374377603
0.11219999107416,0.103156374377603
0.11219999107416,0.103156374377603
0.11219999107416,0.103156374377603
0.11219999107416,0.103156374377603
0.110583615113083,0.135861539370311
0.110583615113083,0.135861539370311
0.110583615113083,0.135861539370311
0.110583615113083,0.135861539370311
0.110583615113083,0.135861539370311
0.110583615113083,0.135861539370311
0.171846126333777,0
0.171846126333777,0
0.171846126333777,0
0.171846126333777,0
0.171846126333777,0
0.171846126333777,0
0.170265153804149,0.0342875307606724
0.170265153804149,0.0342875307606724
0.170265153804149,0.0342875307606724
0.170265153804149,0.0342875307606724
0.170265153804149,0.0342875307606724
0.170265153804149,0.0342875307606724
0.167220962486432,0.0683110308982218
0.167220962486432,0.0683110308982218
0.167220962486432,0.0683110308982218
0.167220962486432,0.0683110308982218
0.167220962486432,0.0683110308982218
0.167220962486432,0.0683110308982218
0.166813697201015,0.10060182302891
0.166813697201015,0.10060182302891
0.166813697201015,0.10060182302891
0.166813697201015,0.10060182302891
0.166813697201015,0.10060182302891
0.166813697201015,0.10060182302891
0.162697401733869,0.133411376351911
0.162697401733869,0.133411376351911
0.162697401733869,0.133411376351911
0.162697401733869,0.133411376351911
0.162697401733869,0.133411376351911
0.162697401733869,0.133411376351911
0.224413402523964,0
0.224413402523964,0
0.224413402523964,0
0.224413402523964,0
0.224413402523964,0
0.224413402523964,0
0.222920335762982,0.0335339410096366
0.222920335762982,0.0335339410096366
0.222920335762982,0.0335339410096366
0.222920335762982,0.0335339410096366
0.222920335762982,0.0335339410096366
0.222920335762982,0.0335339410096366
0.219153777307164,0.0667693726550546
0.219153777307164,0.0667693726550546
0.219153777307164,0.0667693726550546
0.219153777307164,0.0667693726550546
0.219153777307164,0.0667693726550546
0.219153777307164,0.0667693726550546
0.216540799912757,0.0991327453995753
0.216540799912757,0.0991327453995753
0.216540799912757,0.0991327453995753
0.216540799912757,0.0991327453995753
0.216540799912757,0.0991327453995753
0.216540799912757,0.0991327453995753
0.213734146624088,0.13007139397916
0.213734146624088,0.13007139397916
0.213734146624088,0.13007139397916
0.213734146624088,0.13007139397916
0.213734146624088,0.13007139397916
0.213734146624088,0.13007139397916
0.113406303544053,0.069838056680162
0.113406303544053,0.069838056680162
0.113406303544053,0.069838056680162
0.113406303544053,0.069838056680162
0.113406303544053,0.069838056680162
0.113406303544053,0.069838056680162
