13
14
15
85
86
87
19
20
21
58
59
60
37
38
39
10
11
12
67
68
69
22
23
24
25
26
27
1
2
3
49
50
51
31
32
33
94
95
96
28
29
30
52
53
54
46
47
48
34
35
36
70
71
72
4
5
6
61
62
63
73
74
75
40
41
42
88
89
90
76
77
78
64
65
66
253
254
255
256
257
258
223
224
225
241
242
243
238
239
240
202
203
204
280
281
282
286
287
288
232
233
234
259
260
261
196
197
198
265
266
267
271
272
273
250
251
252
205
206
207
199
200
201
283
284
285
274
275
276
220
221
222
214
215
216
226
227
228
208
209
210
235
236
237
193
194
195
217
218
219
424
425
426
442
443
444
415
416
417
475
476
477
451
452
453
469
470
471
394
395
396
388
389
390
472
473
474
400
401
402
460
461
462
436
437
438
457
458
459
391
392
393
430
431
432
427
428
429
439
440
441
412
413
414
433
434
435
448
449
450
403
404
405
421
422
423
397
398
399
466
467
468
454
455
456
622
623
624
619
620
621
658
659
660
589
590
591
598
599
600
592
593
594
664
665
666
667
668
669
580
581
582
586
587
588
604
605
606
613
614
615
628
629
630
643
644
645
637
638
639
634
635
636
670
671
672
661
662
663
595
596
597
577
578
579
601
602
603
640
641
642
610
611
612
625
626
627
616
617
618
769
770
771
808
809
810
853
854
855
844
845
846
823
824
825
790
791
792
847
848
849
772
773
774
796
797
798
805
806
807
829
830
831
781
782
783
841
842
843
856
857
858
775
776
777
826
827
828
850
851
852
802
803
804
787
788
789
793
794
795
862
863
864
799
800
801
838
839
840
778
779
780
859
860
861
928
929
930
865
866
867
937
938
939
955
956
957
916
917
918
895
896
897
922
923
924
904
905
906
886
887
888
868
869
870
949
950
951
907
908
909
892
893
894
901
902
903
889
890
891
871
872
873
925
926
927
946
947
948
913
914
915
910
911
912
931
932
933
940
941
942
874
875
876
952
953
954
898
899
900
1045
1046
1047
976
977
978
1048
1049
1050
997
998
999
1015
1016
1017
1000
1001
1002
1030
1031
1032
1006
1007
1008
988
989
990
1003
1004
1005
979
980
981
994
995
996
961
962
963
964
965
966
1054
1055
1056
1039
1040
1041
967
968
969
991
992
993
1012
1013
1014
1009
1010
1011
970
971
972
1036
1037
1038
982
983
984
985
986
987
1018
1019
1020
1141
1142
1143
1126
1127
1128
1099
1100
1101
1075
1076
1077
1087
1088
1089
1078
1079
1080
1111
1112
1113
1063
1064
1065
1096
1097
1098
1090
1091
1092
1147
1148
1149
1120
1121
1122
1129
1130
1131
1117
1118
1119
1081
1082
1083
1102
1103
1104
1150
1151
1152
1069
1070
1071
1066
1067
1068
1108
1109
1110
1072
1073
1074
1132
1133
1134
1060
1061
1062
1144
1145
1146
1138
1139
1140
1189
1190
1191
1195
1196
1197
1192
1193
1194
1216
1217
1218
1204
1205
1206
1186
1187
1188
1243
1244
1245
1153
1154
1155
1162
1163
1164
1201
1202
1203
1156
1157
1158
1231
1232
1233
1183
1184
1185
1210
1211
1212
1174
1175
1176
1165
1166
1167
1171
1172
1173
1222
1223
1224
1246
1247
1248
1240
1241
1242
1168
1169
1170
1177
1178
1179
1225
1226
1227
1228
1229
1230
1207
1208
1209
1306
1307
1308
1339
1340
1341
1321
1322
1323
1312
1313
1314
1267
1268
1269
1303
1304
1305
1273
1274
1275
1264
1265
1266
1300
1301
1302
1330
1331
1332
1255
1256
1257
1261
1262
1263
1294
1295
1296
1249
1250
1251
1309
1310
1311
1291
1292
1293
1333
1334
1335
1252
1253
1254
1258
1259
1260
1285
1286
1287
1342
1343
1344
1288
1289
1290
1318
1319
1320
1315
1316
1317
1279
1280
1281
1351
1352
1353
1393
1394
1395
1345
1346
1347
1360
1361
1362
1357
1358
1359
1384
1385
1386
1402
1403
1404
1369
1370
1371
1426
1427
1428
1348
1349
1350
1366
1367
1368
1420
1421
1422
1372
1373
1374
1423
1424
1425
1438
1439
1440
1378
1379
1380
1435
1436
1437
1387
1388
1389
1429
1430
1431
1411
1412
1413
1399
1400
1401
1414
1415
1416
1405
1406
1407
1396
1397
1398
1408
1409
1410
1444
1445
1446
1441
1442
1443
1465
1466
1467
1450
1451
1452
1495
1496
1497
1510
1511
1512
1525
1526
1527
1456
1457
1458
1489
1490
1491
1474
1475
1476
1486
1487
1488
1528
1529
1530
1447
1448
1449
1480
1481
1482
1519
1520
1521
1516
1517
1518
1504
1505
1506
1459
1460
1461
1453
1454
1455
1513
1514
1515
1471
1472
1473
1477
1478
1479
1531
1532
1533
1462
1463
1464
1483
1484
1485
1633
1634
1635
1636
1637
1638
1702
1703
1704
1657
1658
1659
1726
1727
1728
1669
1670
1671
1708
1709
1710
1642
1643
1644
1693
1694
1695
1648
1649
1650
1675
1676
1677
1678
1679
1680
1663
1664
1665
1714
1715
1716
1720
1721
1722
1690
1691
1692
1672
1673
1674
1639
1640
1641
1723
1724
1725
1654
1655
1656
1717
1718
1719
1684
1685
1686
1666
1667
1668
1696
1697
1698
1681
1682
1683
1756
1757
1758
1798
1799
1800
1741
1742
1743
1765
1766
1767
1786
1787
1788
1732
1733
1734
1774
1775
1776
1771
1772
1773
1753
1754
1755
1780
1781
1782
1777
1778
1779
1807
1808
1809
1801
1802
1803
1738
1739
1740
1768
1769
1770
1762
1763
1764
1795
1796
1797
1819
1820
1821
1783
1784
1785
1735
1736
1737
1729
1730
1731
1789
1790
1791
1816
1817
1818
1822
1823
1824
1813
1814
1815
1831
1832
1833
1855
1856
1857
1870
1871
1872
1882
1883
1884
1876
1877
1878
1888
1889
1890
1894
1895
1896
1852
1853
1854
1897
1898
1899
1900
1901
1902
1918
1919
1920
1885
1886
1887
1834
1835
1836
1843
1844
1845
1909
1910
1911
1846
1847
1848
1864
1865
1866
1873
1874
1875
1912
1913
1914
1837
1838
1839
1849
1850
1851
1891
1892
1893
1903
1904
1905
1879
1880
1881
1840
1841
1842
1960
1961
1962
1939
1940
1941
1948
1949
1950
1987
1988
1989
1921
1922
1923
2014
2015
2016
1963
1964
1965
1996
1997
1998
1957
1958
1959
1933
1934
1935
1951
1952
1953
1927
1928
1929
2011
2012
2013
1945
1946
1947
1993
1994
1995
1936
1937
1938
1930
1931
1932
2005
2006
2007
1999
2000
2001
1972
1973
1974
1924
1925
1926
1954
1955
1956
1975
1976
1977
1966
1967
1968
1969
1970
1971
2020
2021
2022
2098
2099
2100
2068
2069
2070
2065
2066
2067
2110
2111
2112
2107
2108
2109
2092
2093
2094
2101
2102
2103
2026
2027
2028
2029
2030
2031
2035
2036
2037
2044
2045
2046
2053
2054
2055
2086
2087
2088
2023
2024
2025
2089
2090
2091
2104
2105
2106
2080
2081
2082
2041
2042
2043
2083
2084
2085
2050
2051
2052
2077
2078
2079
2071
2072
2073
2047
2048
2049
2038
2039
2040
2128
2129
2130
2146
2147
2148
2122
2123
2124
2131
2132
2133
2179
2180
2181
2140
2141
2142
2191
2192
2193
2149
2150
2151
2164
2165
2166
2134
2135
2136
2206
2207
2208
2185
2186
2187
2200
2201
2202
2173
2174
2175
2203
2204
2205
2152
2153
2154
2176
2177
2178
2137
2138
2139
2119
2120
2121
2155
2156
2157
2167
2168
2169
2197
2198
2199
2194
2195
2196
2182
2183
2184
2125
2126
2127
2245
2246
2247
2263
2264
2265
2260
2261
2262
2290
2291
2292
2209
2210
2211
2230
2231
2232
2251
2252
2253
2218
2219
2220
2242
2243
2244
2272
2273
2274
2236
2237
2238
2302
2303
2304
2212
2213
2214
2215
2216
2217
2281
2282
2283
2299
2300
2301
2254
2255
2256
2257
2258
2259
2227
2228
2229
2248
2249
2250
2233
2234
2235
2284
2285
2286
2239
2240
2241
2221
2222
2223
2296
2297
2298
2356
2357
2358
2371
2372
2373
2398
2399
2400
2305
2306
2307
2395
2396
2397
2338
2339
2340
2380
2381
2382
2335
2336
2337
2311
2312
2313
2320
2321
2322
2368
2369
2370
2359
2360
2361
2365
2366
2367
2350
2351
2352
2317
2318
2319
2344
2345
2346
2374
2375
2376
2362
2363
2364
2353
2354
2355
2383
2384
2385
2308
2309
2310
2389
2390
2391
2314
2315
2316
2377
2378
2379
2326
2327
2328
2467
2468
2469
2482
2483
2484
2446
2447
2448
2458
2459
2460
2419
2420
2421
2473
2474
2475
2428
2429
2430
2431
2432
2433
2407
2408
2409
2413
2414
2415
2425
2426
2427
2461
2462
2463
2410
2411
2412
2470
2471
2472
2494
2495
2496
2449
2450
2451
2479
2480
2481
2464
2465
2466
2476
2477
2478
2455
2456
2457
2437
2438
2439
2491
2492
2493
2485
2486
2487
2404
2405
2406
2443
2444
2445
2578
2579
2580
2584
2585
2586
2569
2570
2571
2590
2591
2592
2533
2534
2535
2545
2546
2547
2497
2498
2499
2524
2525
2526
2575
2576
2577
2542
2543
2544
2587
2588
2589
2548
2549
2550
2527
2528
2529
2503
2504
2505
2521
2522
2523
2539
2540
2541
2500
2501
2502
2536
2537
2538
2554
2555
2556
2530
2531
2532
2518
2519
2520
2572
2573
2574
2557
2558
2559
2515
2516
2517
2506
2507
2508
2602
2603
2604
2641
2642
2643
2596
2597
2598
2626
2627
2628
2632
2633
2634
2593
2594
2595
2614
2615
2616
2656
2657
2658
2653
2654
2655
2671
2672
2673
2686
2687
2688
2665
2666
2667
2647
2648
2649
2620
2621
2622
2635
2636
2637
2608
2609
2610
2683
2684
2685
2650
2651
2652
2629
2630
2631
2599
2600
2601
2659
2660
2661
2677
2678
2679
2623
2624
2625
2644
2645
2646
2668
2669
2670
2761
2762
2763
2725
2726
2727
2767
2768
2769
2707
2708
2709
2755
2756
2757
2749
2750
2751
2722
2723
2724
2731
2732
2733
2743
2744
2745
2758
2759
2760
2782
2783
2784
2692
2693
2694
2752
2753
2754
2779
2780
2781
2728
2729
2730
2716
2717
2718
2695
2696
2697
2746
2747
2748
2719
2720
2721
2740
2741
2742
2737
2738
2739
2710
2711
2712
2689
2690
2691
2764
2765
2766
2701
2702
2703
2809
2810
2811
2857
2858
2859
2854
2855
2856
2836
2837
2838
2800
2801
2802
2821
2822
2823
2815
2816
2817
2851
2852
2853
2875
2876
2877
2788
2789
2790
2872
2873
2874
2842
2843
2844
2833
2834
2835
2803
2804
2805
2794
2795
2796
2860
2861
2862
2797
2798
2799
2791
2792
2793
2848
2849
2850
2785
2786
2787
2866
2867
2868
2878
2879
2880
2839
2840
2841
2824
2825
2826
2830
2831
2832
2911
2912
2913
2962
2963
2964
2932
2933
2934
2926
2927
2928
2884
2885
2886
2950
2951
2952
2908
2909
2910
2944
2945
2946
2899
2900
2901
2929
2930
2931
2920
2921
2922
2959
2960
2961
2956
2957
2958
2914
2915
2916
2953
2954
2955
2893
2894
2895
2887
2888
2889
2902
2903
2904
2971
2972
2973
2965
2966
2967
2974
2975
2976
2905
2906
2907
2941
2942
2943
2947
2948
2949
2938
2939
2940
3328
3329
3330
3310
3311
3312
3268
3269
3270
3343
3344
3345
3289
3290
3291
3265
3266
3267
3277
3278
3279
3295
3296
3297
3316
3317
3318
3292
3293
3294
3304
3305
3306
3355
3356
3357
3283
3284
3285
3280
3281
3282
3352
3353
3354
3331
3332
3333
3286
3287
3288
3313
3314
3315
3271
3272
3273
3349
3350
3351
3358
3359
3360
3307
3308
3309
3325
3326
3327
3346
3347
3348
3340
3341
3342
3430
3431
3432
3394
3395
3396
3379
3380
3381
3400
3401
3402
3373
3374
3375
3388
3389
3390
3412
3413
3414
3382
3383
3384
3439
3440
3441
3397
3398
3399
3418
3419
3420
3436
3437
3438
3454
3455
3456
3409
3410
3411
3445
3446
3447
3385
3386
3387
3442
3443
3444
3448
3449
3450
3424
3425
3426
3427
3428
3429
3367
3368
3369
3391
3392
3393
3433
3434
3435
3406
3407
3408
3403
3404
3405
3496
3497
3498
3475
3476
3477
3490
3491
3492
3535
3536
3537
3529
3530
3531
3502
3503
3504
3469
3470
3471
3466
3467
3468
3532
3533
3534
3484
3485
3486
3544
3545
3546
3514
3515
3516
3541
3542
3543
3523
3524
3525
3493
3494
3495
3550
3551
3552
3526
3527
3528
3460
3461
3462
3481
3482
3483
3499
3500
3501
3505
3506
3507
3517
3518
3519
3538
3539
3540
3457
3458
3459
3520
3521
3522
3727
3728
3729
3709
3710
3711
3661
3662
3663
3721
3722
3723
3655
3656
3657
3688
3689
3690
3673
3674
3675
3730
3731
3732
3685
3686
3687
3724
3725
3726
3697
3698
3699
3706
3707
3708
3652
3653
3654
3703
3704
3705
3664
3665
3666
3739
3740
3741
3715
3716
3717
3712
3713
3714
3691
3692
3693
3736
3737
3738
3649
3650
3651
3658
3659
3660
3679
3680
3681
3667
3668
3669
3742
3743
3744
3853
3854
3855
3856
3857
3858
3922
3923
3924
3904
3905
3906
3901
3902
3903
3895
3896
3897
3910
3911
3912
3883
3884
3885
3886
3887
3888
3934
3935
3936
3889
3890
3891
3862
3863
3864
3913
3914
3915
3877
3878
3879
3859
3860
3861
3868
3869
3870
3919
3920
3921
3871
3872
3873
3892
3893
3894
3916
3917
3918
3898
3899
3900
3847
3848
3849
3931
3932
3933
3844
3845
3846
3907
3908
3909
3985
3986
3987
4003
4004
4005
3979
3980
3981
4015
4016
4017
4006
4007
4008
4009
4010
4011
3976
3977
3978
3949
3950
3951
3982
3983
3984
3961
3962
3963
3955
3956
3957
4012
4013
4014
3940
3941
3942
3994
3995
3996
4027
4028
4029
3973
3974
3975
4021
4022
4023
3937
3938
3939
4000
4001
4002
3943
3944
3945
4018
4019
4020
4024
4025
4026
3952
3953
3954
3991
3992
3993
3988
3989
3990
4036
4037
4038
4081
4082
4083
4051
4052
4053
4057
4058
4059
4120
4121
4122
4066
4067
4068
4072
4073
4074
4054
4055
4056
4111
4112
4113
4087
4088
4089
4102
4103
4104
4060
4061
4062
4108
4109
4110
4033
4034
4035
4069
4070
4071
4084
4085
4086
4096
4097
4098
4042
4043
4044
4117
4118
4119
4126
4127
4128
4075
4076
4077
4045
4046
4047
4078
4079
4080
4063
4064
4065
4123
4124
4125
4144
4145
4146
4171
4172
4173
4210
4211
4212
4147
4148
4149
4222
4223
4224
4177
4178
4179
4213
4214
4215
4219
4220
4221
4159
4160
4161
4135
4136
4137
4201
4202
4203
4162
4163
4164
4168
4169
4170
4186
4187
4188
4192
4193
4194
4156
4157
4158
4207
4208
4209
4216
4217
4218
4189
4190
4191
4138
4139
4140
4129
4130
4131
4153
4154
4155
4195
4196
4197
4132
4133
4134
4141
4142
4143
4267
4268
4269
4318
4319
4320
4309
4310
4311
4249
4250
4251
4294
4295
4296
4303
4304
4305
4225
4226
4227
4261
4262
4263
4312
4313
4314
4291
4292
4293
4270
4271
4272
4237
4238
4239
4300
4301
4302
4258
4259
4260
4276
4277
4278
4306
4307
4308
4240
4241
4242
4243
4244
4245
4231
4232
4233
4282
4283
4284
4246
4247
4248
4297
4298
4299
4252
4253
4254
4264
4265
4266
4315
4316
4317
4324
4325
4326
4366
4367
4368
4381
4382
4383
4408
4409
4410
4357
4358
4359
4348
4349
4350
4333
4334
4335
4321
4322
4323
4351
4352
4353
4354
4355
4356
4387
4388
4389
4393
4394
4395
4342
4343
4344
4384
4385
4386
4339
4340
4341
4330
4331
4332
4360
4361
4362
4345
4346
4347
4405
4406
4407
4390
4391
4392
4399
4400
4401
4363
4364
4365
4402
4403
4404
4396
4397
4398
4378
4379
4380
4576
4577
4578
4564
4565
4566
4540
4541
4542
4543
4544
4545
4519
4520
4521
4549
4550
4551
4573
4574
4575
4603
4604
4605
4516
4517
4518
4567
4568
4569
4525
4526
4527
4585
4586
4587
4546
4547
4548
4522
4523
4524
4537
4538
4539
4591
4592
4593
4570
4571
4572
4561
4562
4563
4606
4607
4608
4600
4601
4602
4555
4556
4557
4531
4532
4533
4597
4598
4599
4558
4559
4560
4582
4583
4584
