82
83
84
79
80
81
16
17
18
91
92
93
55
56
57
262
263
264
277
278
279
229
230
231
244
245
246
268
269
270
406
407
408
409
410
411
418
419
420
478
479
480
445
446
447
649
650
651
652
653
654
655
656
657
631
632
633
646
647
648
817
818
819
811
812
813
835
836
837
820
821
822
814
815
816
919
920
921
934
935
936
883
884
885
877
878
879
943
944
945
1033
1034
1035
1024
1025
1026
1051
1052
1053
1027
1028
1029
1021
1022
1023
1123
1124
1125
1114
1115
1116
1084
1085
1086
1105
1106
1107
1057
1058
1059
1234
1235
1236
1159
1160
1161
1198
1199
1200
1180
1181
1182
1219
1220
1221
1324
1325
1326
1297
1298
1299
1282
1283
1284
1327
1328
1329
1336
1337
1338
1417
1418
1419
1354
1355
1356
1375
1376
1377
1363
1364
1365
1381
1382
1383
1492
1493
1494
1468
1469
1470
1501
1502
1503
1522
1523
1524
1534
1535
1536
1645
1646
1647
1705
1706
1707
1711
1712
1713
1651
1652
1653
1699
1700
1701
1747
1748
1749
1759
1760
1761
1792
1793
1794
1750
1751
1752
1744
1745
1746
1861
1862
1863
1825
1826
1827
1867
1868
1869
1828
1829
1830
1858
1859
1860
1990
1991
1992
2002
2003
2004
1984
1985
1986
1978
1979
1980
2008
2009
2010
2017
2018
2019
2062
2063
2064
2059
2060
2061
2074
2075
2076
2032
2033
2034
2170
2171
2172
2161
2162
2163
2143
2144
2145
2158
2159
2160
2113
2114
2115
2278
2279
2280
2269
2270
2271
2224
2225
2226
2266
2267
2268
2293
2294
2295
2341
2342
2343
2329
2330
2331
2347
2348
2349
2392
2393
2394
2332
2333
2334
2422
2423
2424
2401
2402
2403
2440
2441
2442
2434
2435
2436
2416
2417
2418
2563
2564
2565
2581
2582
2583
2566
2567
2568
2560
2561
2562
2509
2510
2511
2674
2675
2676
2611
2612
2613
2680
2681
2682
2617
2618
2619
2605
2606
2607
2776
2777
2778
2704
2705
2706
2770
2771
2772
2734
2735
2736
2773
2774
2775
2818
2819
2820
2845
2846
2847
2863
2864
2865
2869
2870
2871
2827
2828
2829
