409.9782911
413.3821772
416.7538174
420.1387886
423.5219006
426.9031548
430.2674028
433.6449545
437.0055196
440.3642496
443.7211461
447.0762105
450.4294444
453.7808493
457.1304266
460.4781778
463.8090368
467.1531487
470.4803876
473.8058228
477.1294557
480.4512878
483.7713206
487.0895555
490.4059939
493.7206374
497.0185011
500.3295671
503.6238724
506.9164047
510.2221194
513.5111019
516.7983157
520.0837622
523.3525211
526.6344453
529.9146065
533.1781082
536.4547556
539.7147624
542.9730277
546.229553
549.4843396
552.737389
555.9887025
559.2382816
562.4861276
565.7174233
568.9618152
572.1896754
575.4158238
578.6402617
581.8629905
585.0840116
588.3033263
591.5209359
594.7368419
597.9363055
601.148816
604.3449022
607.5540226
610.746737
613.9377713
617.1271269
620.3148051
623.5008071
626.6851344
629.8531254
633.0341147
636.1987859
639.3764426
642.537799
645.6975039
648.8555585
652.0119641
655.166722
658.3198335
661.4712999
664.6065438
667.7547314
670.8867142
674.0316282
677.1603551
680.2874596
683.4129431
686.5368069
689.6590521
692.77968
695.898692
699.0015934
702.1173846
705.2170827
708.3151847
711.4261579
714.5210641
717.6143779
720.7061006
723.7962334
726.8847775
729.9573129
733.0426908
736.112077
739.1942935
742.2605356
745.3252111
748.3883211
751.4498669
754.5098497
757.5682707
760.6251311
763.680432
766.7198415
769.7720344
772.8083529
775.8431313
778.8906747
781.9223691
784.9525269
787.9811493
791.0082373
794.0195244
797.0435547
800.0660542
803.0727778
806.0922264
809.0959159
812.0980935
815.0987605
818.097918
821.0955671
824.0917091
827.0863449
830.0794757
833.056928
836.0470595
839.0215288
842.0086654
844.9801563
847.9501631
850.9186871
853.8857293
856.8512908
859.8153727
862.763872
865.7250051
868.6705718
871.6287605
874.571399
877.5125786
880.4663624
883.4046203
886.3414225
889.2767701
892.1966298
895.1290782
898.0600753
900.9756085
903.903713
906.8163695
909.7275928
912.6513697
915.5597227
918.4666456
921.3721394
924.2762051
927.1648924
930.0661121
932.965907
935.8503471
938.7473022
941.6289182
944.5091272
947.3879301
950.2653281
953.1413221
956.0159131
958.8891022
961.7608905
964.6174156
967.4864119
970.3401606
973.2063691
976.0573454
978.9069404
981.7551551
984.6019904
987.4474475
990.2915272
993.1342306
995.9617691
998.8017296
1001.62654
1004.463762
1007.285849
1010.106579
1012.939703
1015.757715
1018.574373
1021.389678
1024.189907
1027.002515
1029.813773
1032.609978
1035.418545
1038.212074
1041.00427
1043.808811
1046.598336
1049.386531
1052.173397
1054.958934
1057.729499
1060.512388
1063.293952
1066.060566
1068.839487
1071.603474
1074.366152
1077.141121
1079.901177
1082.659926
1085.417371
1088.159937
1090.914781
1093.668321
1096.420561
1099.157951
1101.894054
1104.642407
1107.375933
1110.108175
1112.839133
1115.568809
1118.297204
1121.024318
1123.750152
1126.474707
1129.184506
1131.906513
1134.613778
1137.33324
1140.037974
1142.741448
1145.443661
1148.144615
1150.844312
1153.54275
1156.239933
1158.92245
1161.617128
1164.297156
1166.989334
1169.666875
1172.343177
1175.031614
1177.705435
1180.37802
1183.049369
1185.719485
1188.375025
1191.042679
1193.709102
1196.360971
1199.024939
1201.674367
1204.322578
1206.969574
1209.628648
1212.273209
1214.916558
1217.54542
1220.186351
1222.826072
1225.464583
1228.088636
1230.724736
1233.346392
1235.966854
1238.599348
1241.217417
1243.834295
1246.449982
1249.064479
1251.664591
1254.276716
1256.887653
1259.484226
1262.092796
1264.687015
1267.293222
1269.885091
1272.475789
1275.065317
1277.653676
1280.240866
1282.826889
1285.411744
1287.982321
1290.564851
1293.133115
1295.713322
1298.279278
1300.857166
1303.420815
1305.983315
1308.544668
1311.104873
1313.663931
1316.221843
1318.765569
1321.321197
1323.875682
1326.416001
1328.955188
1331.506259
1334.043182
1336.578977
1339.113645
1341.647186
1344.179602
1346.710892
1349.241058
1351.7701
1354.285058
1356.811861
1359.324593
1361.849159
1364.359668
1366.869069
1369.377363
1371.884551
1374.390633
1376.895611
1379.399484
1381.902254
1384.403921
1386.8916
1389.39107
1391.876565
1394.37384
1396.857153
1399.339379
1401.820518
1404.300572
1406.779541
1409.257426
1411.734227
1414.209946
1416.671764
1419.145325
1421.604998
1424.076404
1426.533935
1428.990398
1431.45858
1433.912905
1436.366165
1438.81836
1441.269492
1443.706802
1446.155813
1448.603763
1451.03791
1453.483744
1455.915787
1458.359508
1460.789451
1463.218347
1465.646197
1468.073002
1470.498762
1472.923478
1475.347151
1477.769782
1480.178694
1482.599247
1485.018759
1487.424572
1489.829356
1492.245761
